Mass [GeV]              Yield × Muon BR       
0.25                    0.06428019502583093   
0.255                   0.0635602569286378    
0.26                    0.06256245809601191   
0.265                   0.06134889774162587   
0.27                    0.05996604202909048   
0.275                   0.05844962822884599   
0.28                    0.05682779019031514   
0.28500000000000003     0.055123126837108974  
0.29                    0.05335411480356805   
0.295                   0.051536099076205655  
0.3                     0.049682003595769623  
0.305                   0.04780285100630482   
0.31                    0.045908149278511536  
0.315                   0.04400618355786883   
0.32                    0.04210423930686678   
0.325                   0.04020877482758314   
0.33                    0.03832555594342429   
0.335                   0.036459762018368036  
0.33999999999999997     0.03461607000466252   
0.345                   0.03279872146293805   
0.35                    0.031011576253123754  
0.355                   0.029258155694208907  
0.36                    0.02754167733181277   
0.365                   0.02430835323901861   
0.37                    0.022654935740697595  
0.375                   0.02103537555017014   
0.38                    0.019479627550226482  
0.385                   0.01815474621057332   
0.39                    0.01686976784111553   
0.395                   0.015503731781319821  
0.4                     0.014200813617305177  
0.405                   0.012924506423280517  
0.41000000000000003     0.011718773057285392  
0.41500000000000004     0.010666528151539276  
0.42000000000000004     0.009666452707894702  
0.42500000000000004     0.008609616388635725  
0.43                    0.007630515873794265  
0.435                   0.0067186824478254505 
0.44                    0.006023676101450254  
0.445                   0.005253011482266836  
0.45                    0.004548604680868379  
0.455                   0.003964490179241948  
0.45999999999999996     0.00342524865084725   
0.46499999999999997     0.0028781593225599843 
0.47                    0.002392419350780808  
0.475                   0.00196868678938192   
0.48                    0.0015973567978486843 
0.485                   0.0012815848201855173 
0.49                    0.001008220944474372  
0.495                   0.0007755800114400017 
0.5                     0.0005808068936767612 
0.505                   0.00041869132672637947
0.51                    0.0002897632686525444 
0.515                   0.00019265456400047857
0.52                    0.00011946040933416838
0.525                   0.00006569488979599021
0.53                    0.00003125610585961011
0.535                   0.00001179653213848791
0.54                    2.754434863668222e-6  
0.5449999999999999      1.459758822298128e-7  
0.55                    0                     