Mass [GeV]              Yield × Muon BR        
0.25                    0.0018264205410151622  
0.255                   0.001881780266183107   
0.26                    0.0019324031864267968  
0.265                   0.0019794609055459236  
0.27                    0.002023823451638606   
0.275                   0.0020661556431116213  
0.28                    0.002106978206475804   
0.28500000000000003     0.0021467080674375514  
0.29                    0.0021856857896992575  
0.295                   0.002224194788308224   
0.3                     0.0022576297749244134  
0.305                   0.002296124869851973   
0.31                    0.002334778977027964   
0.315                   0.0023737525310438775  
0.32                    0.0024131905628762885  
0.325                   0.0024532261672371553  
0.33                    0.0024939832694987492  
0.335                   0.002535578868079402   
0.33999999999999997     0.0025781248805075672  
0.345                   0.002621729688055468   
0.35                    0.0026664994501960134  
0.355                   0.002712539243155382   
0.36                    0.0027599540644975733  
0.365                   0.0026397948031813075  
0.37                    0.0026733464731930633  
0.375                   0.0027049136196592794  
0.38                    0.002737730762602047   
0.385                   0.0027975145535709504  
0.39                    0.0028595892390323088  
0.395                   0.0029011199870451936  
0.4                     0.002944355989524085   
0.405                   0.0029809230445996494  
0.41000000000000003     0.003019259152500146   
0.41500000000000004     0.0030836571537956547  
0.42000000000000004     0.0031507463769894933  
0.42500000000000004     0.003180263416665439   
0.43                    0.003211925105835527   
0.435                   0.003242039542817554   
0.44                    0.0033537116608001595  
0.445                   0.0033982611169221144  
0.45                    0.003445472332899801   
0.455                   0.0035460551508041823  
0.45999999999999996     0.0036516098637867983  
0.46499999999999997     0.003695176277938641   
0.47                    0.0037420503799586793  
0.475                   0.0038006629942653     
0.48                    0.0038629769061060398  
0.485                   0.003948896134141369   
0.49                    0.004036823158900057   
0.495                   0.0041295966625661115  
0.5                     0.004227544021068285   
0.505                   0.004308037615940645   
0.51                    0.0043938229861842934  
0.515                   0.004540507314676289   
0.52                    0.004695711046522653   
0.525                   0.00475075055506351    
0.53                    0.004812639362268614   
0.535                   0.0049254148745496     
0.54                    0.005045992586489298   
0.5449999999999999      0.005190305079068061   
0.55                    0.005344194122809881   
0.5549999999999999      0.005494386219429001   
0.56                    0.0056552340938251415  
0.565                   0.005810456831075398   
0.5700000000000001      0.005977615563765268   
0.575                   0.0061577259740359346  
0.5800000000000001      0.006351925299399216   
0.585                   0.006491135234276577   
0.5900000000000001      0.006645661523449866   
0.595                   0.006816658263240852   
0.6000000000000001      0.007005769311319955   
0.605                   0.007028502114879335   
0.61                    0.007396638789056272   
0.615                   0.0076818592720480534  
0.62                    0.007980758865703609   
0.625                   0.007915386809430101   
0.63                    0.008335085502328731   
0.635                   0.008670280837665382   
0.64                    0.009480028783487946   
0.645                   0.009059315170609648   
0.65                    0.009439210832966014   
0.655                   0.009825295778720882   
0.66                    0.010256284389666503   
0.665                   0.01071966008839308    
0.6699999999999999      0.011292395507727463   
0.675                   0.011742758405984169   
0.6799999999999999      0.011644016886933664   
0.685                   0.012199637349195663   
0.69                    0.01314513669216174    
0.6950000000000001      0.013993705326523815   
0.7                     0.014818609797645628   
0.7050000000000001      0.016206109393482153   
0.71                    0.01703379383073828    
0.7150000000000001      0.019119784793227575   
0.72                    0.020594687846719917   
0.7250000000000001      0.023617006881901027   
0.73                    0.027229501601320455   
0.735                   0.032776070348538376   
0.74                    0.035515240014822154   
0.745                   0.05452157626760041    
0.75                    0.07791134346270703    
0.755                   0.12664880496320874    
0.76                    0.25021469976865457    
0.765                   0.6550036479420628     
0.77                    1.5001357732722347     
0.775                   0.5538993991440249     
0.78                    0.1488271710879573     
0.785                   0.08269118644587373    
0.79                    0.07811613689793726    
0.795                   0.06355133173967156    
0.8                     0.04997447386304485    
0.805                   0.04239961379145104    
0.81                    0.036268981186717175   
0.8150000000000001      0.03247124460686629    
0.8200000000000001      0.028673141001465348   
0.8250000000000001      0.0260392547863879     
0.83                    0.023592821846178082   
0.835                   0.02231173417601993    
0.84                    0.020961872478240978   
0.845                   0.02010584816045632    
0.85                    0.01930396598708956    
0.855                   0.017971822784728173   
0.86                    0.016019449217632473   
0.865                   0.015830914415347893   
0.87                    0.01582082473002601    
0.875                   0.015089100237707735   
0.88                    0.014315883542810671   
0.885                   0.013961201629313646   
0.89                    0.013653360901468918   
0.895                   0.012849576368636793   
0.9                     0.012507494762310278   
0.905                   0.012004193066756525   
0.91                    0.011772489640185483   
0.915                   0.011392661472298537   
0.92                    0.010747055204448479   
0.925                   0.010636861866437492   
0.93                    0.010242996833472292   
0.935                   0.010133050656959719   
0.9400000000000001      0.009652011235716395   
0.9450000000000001      0.009505983305801179   
0.9500000000000001      0.009132764231550508   
0.955                   0.009041287543197657   
0.96                    0.00853098680885678    
0.965                   0.00859125633957941    
0.97                    0.008250370240597193   
0.975                   0.007956096025501925   
0.98                    0.007592844638115697   
0.985                   0.007975339751160234   
0.99                    0.007374768711163827   
0.995                   0.006995520818109985   
1.                      0.0063368269314586015  
1.005                   0.005936047752975198   
1.01                    0.004514747730145993   
1.0150000000000001      0.0016915053285640183  
1.02                    0.00040282078124348594 
1.025                   0.0017007721677549364  
1.03                    0.003288435553791806   
1.0350000000000001      0.004186109212566308   
1.04                    0.004720930896309032   
1.045                   0.004896277728486841   
1.05                    0.005094506689500992   
1.0550000000000002      0.005189032312647087   
1.06                    0.005223877401222796   
1.065                   0.005223943883927348   
1.07                    0.0050702188143727026  
1.0750000000000002      0.004938059502173235   
1.08                    0.005018564869738707   
1.085                   0.005144642890289369   
1.0899999999999999      0.005068743893595158   
1.095                   0.005090876215050917   
1.1                     0.005114001778338093   
1.105                   0.005021362179100897   
1.1099999999999999      0.005047831935198719   
1.115                   0.005091736573751931   
1.12                    0.00499283142694629    
1.125                   0.005013309667942499   
1.13                    0.004839674214324287   
1.135                   0.004849379001045398   
1.1400000000000001      0.004788637038092749   
1.145                   0.004767040761319121   
1.15                    0.004749403109087383   
1.155                   0.004696528751010241   
1.1600000000000001      0.004619045782257618   
1.165                   0.004715870069279637   
1.17                    0.004524035063006273   
1.175                   0.004485102467930994   
1.1800000000000002      0.004478158144509876   
1.185                   0.004475253567853995   
1.19                    0.004499572182629664   
1.195                   0.004382328812190854   
1.2000000000000002      0.004286368869437953   
1.205                   0.004221240856989682   
1.21                    0.0040975222430247975  
1.2149999999999999      0.004164333045432193   
1.22                    0.003975560498591602   
1.225                   0.003956870635029989   
1.23                    0.0037723820844192462  
1.2349999999999999      0.003647760807219586   
1.24                    0.003560099559057299   
1.245                   0.0035248346271943556  
1.25                    0.003375604699642064   
1.2550000000000001      0.003271531333111359   
1.26                    0.003178469058988046   
1.2650000000000001      0.0030734213461331163  
1.27                    0.002885380626210068   
1.275                   0.0028627467707238053  
1.28                    0.0026667204796802756  
1.285                   0.002594711897000559   
1.29                    0.002451281798626573   
1.295                   0.00235221849917254    
1.3                     0.0021762685318500417  
1.305                   0.0020825800859652108  
1.31                    0.0019795854977086337  
1.315                   0.0018726303835565588  
1.32                    0.0017522998683246682  
1.325                   0.0016905098684141314  
1.33                    0.0015687819420849328  
1.335                   0.001460970876597495   
1.34                    0.001347546432132624   
1.345                   0.001293816904821663   
1.35                    0.0011653852917526855  
1.355                   0.00108558525924151    
1.36                    0.0010343044359988414  
1.365                   0.000989178787770171   
1.37                    0.0008972393157695636  
1.375                   0.0008632073023567019  
1.3800000000000001      0.0007902220005022281  
1.385                   0.0007439605291015511  
1.3900000000000001      0.0006942726821315684  
1.395                   0.0006286694702489073  
1.4000000000000001      0.0005853437118358223  
1.405                   0.0005690480303019286  
1.41                    0.0005387261441337646  
1.415                   0.0005073223800413755  
1.42                    0.00047521381093691847 
1.425                   0.0004529834796452635  
1.43                    0.00042951266408908033 
1.435                   0.0004073564263513992  
1.44                    0.0003806956481916403  
1.445                   0.0003439043196142921  
1.45                    0.00032390846831043614 
1.455                   0.00029819009363205197 
1.46                    0.00027469654077099916 
1.465                   0.00025279271099159096 
1.47                    0.0002323209898722494  
1.475                   0.0002136812356635598  
1.48                    0.00019669564031197587 
1.485                   0.00018332232259277918 
1.49                    0.00016954646718550048 
1.495                   0.00015800649153533018 
1.5                     0.0001478504640114133  
1.5050000000000001      0.00014068702275598353 
1.51                    0.00013309044827393185 
1.5150000000000001      0.00012553603660938245 
1.52                    0.00011806545630074075 
1.5250000000000001      0.00011108516683080333 
1.53                    0.0001048576778266753  
1.535                   0.00009901126395201795 
1.54                    0.000093253345578852   
1.545                   0.00008760998058671343 
1.55                    0.00008234545634291322 
1.555                   0.00007768851212900581 
1.56                    0.00007332623417123371 
1.565                   0.00007049217663085052 
1.57                    0.00006666751566722662 
1.575                   0.00006309787082725735 
1.58                    0.00005931792491925568 
1.585                   0.000056006258425547975
1.59                    0.00005247124794997202 
1.595                   0.00004955265137487104 
1.6                     0.00004681743843128496 
1.605                   0.00004477024580156314 
1.61                    0.000042796753398021305
1.615                   0.0000406775279511085  
1.62                    0.00003842458700985974 
1.625                   0.00003705577299675135 
1.6300000000000001      0.000034643166974208786
1.635                   0.000032445687269677955
1.6400000000000001      0.00002928998074875971 
1.645                   0.000027414266861646542
1.6500000000000001      0.00002567717600677413 
1.655                   0.000024984078555424227
1.66                    0.000024323319823344888
1.665                   0.000024066999048965073
1.67                    0.000022863339390136357
1.675                   0.000021708825585870107
1.68                    0.00002069582135056867 
1.685                   0.000020142579658564595
1.69                    0.000019378165893106848
1.695                   0.0000183739232886532  
1.7                     0.00001742891692933628 
1.705                   0.000016800712654837068
1.71                    0.000016201033458892293
1.715                   0.000015604489468219304
1.72                    0.000014853400550977438
1.725                   0.000014446758384467517
1.73                    0.000013948111464472791
1.735                   0.000013446823850298467
1.74                    0.000012624422410652558
1.745                   0.000012105243993666637
1.75                    0.000011610131995010834
1.7550000000000001      0.000010642854315327812
1.76                    0.000010250671132859058
1.7650000000000001      0.000010616854568301361
1.77                    0.000010557385677965155
1.7750000000000001      9.264102552940247e-6   
1.78                    8.954564260536417e-6   
1.7850000000000001      8.917224280274631e-6   
1.79                    8.745384975599027e-6   
1.795                   8.390588014820294e-6   
1.8                     8.052480890894507e-6   
1.805                   7.971777744209745e-6   
1.81                    7.89998165995253e-6    
1.815                   7.574844466136079e-6   
1.82                    7.103544521884495e-6   
1.825                   7.006454105646579e-6   
1.83                    6.502918528498768e-6   
1.835                   6.031019315416027e-6   
1.84                    5.984527236463875e-6   
1.845                   6.135190673909079e-6   
1.85                    6.3159685427137e-6     
1.855                   6.083973848474406e-6   
1.86                    5.861652561158816e-6   
1.865                   5.804833225980977e-6   
1.87                    5.5392637452394415e-6  
1.875                   5.280312582821602e-6   
1.8800000000000001      5.054946858263055e-6   
1.885                   5.004957444481447e-6   
1.8900000000000001      4.856017212698791e-6   
1.895                   4.612584631078784e-6   
1.9000000000000001      4.383370547633819e-6   
1.905                   4.305944848039104e-6   
1.9100000000000001      4.231726592044363e-6   
1.915                   4.042574986625775e-6   
1.92                    3.8039973841778364e-6  
1.925                   3.671375987733406e-6   
1.93                    3.622731278772256e-6   
1.935                   3.562485038517247e-6   
1.94                    3.300328377151697e-6   
1.945                   3.292399284445065e-6   
1.95                    3.0005150511970342e-6  
1.955                   3.2387338719271828e-6  
1.96                    2.7041398383208776e-6  
1.965                   2.747053100283743e-6   
1.97                    2.60524057758082e-6    
1.975                   2.470695696425054e-6   
1.98                    2.3324536379517194e-6  
1.985                   2.338357042487635e-6   
1.99                    2.261830107979858e-6   
1.995                   2.222493822086124e-6   
2.                      2.1845544718023604e-6  
2.005                   2.115316536919568e-6   
2.01                    2.048546464266308e-6   
2.015                   1.9841459271067143e-6  
2.02                    1.922020955846313e-6   
2.0250000000000004      1.8620817242575024e-6  
2.0300000000000002      1.8042423472654307e-6  
2.035                   1.7484206896085814e-6  
2.04                    1.6945381847331706e-6  
2.045                   1.6425196633211176e-6  
2.05                    1.592293190890118e-6   
2.0549999999999997      1.5437899139397414e-6  
2.06                    1.4969439141507497e-6  
2.065                   1.451692070175995e-6   
2.0700000000000003      1.4079739265896874e-6  
2.075                   1.3657315695892615e-6  
2.08                    1.3249095090686123e-6  
2.085                   1.2854545667054018e-6  
2.09                    1.2473157697265343e-6  
2.0949999999999998      1.2104442500366692e-6  
2.1                     1.1747931484135055e-6  
2.105                   1.1403175234914185e-6  
2.1100000000000003      1.1069742652717585e-6  
2.115                   1.074722012913645e-6   
2.12                    1.0435210765736243e-6  
2.125                   1.0133333630763102e-6  
2.13                    9.841223052107856e-7   
2.135                   9.55852794459565e-7    
2.14                    9.284911169780833e-7   
2.145                   9.0200489265325e-7     
2.1500000000000004      8.763630170793066e-7   
2.1550000000000002      8.515356062986427e-7   
2.16                    8.274939441637508e-7   
2.165                   8.042104321846482e-7   
2.17                    7.816585417338071e-7   
2.175                   7.598127684876959e-7   
2.1799999999999997      7.386485889908326e-7   
2.185                   7.181424192345545e-7   
2.19                    6.982715751486449e-7   
2.1950000000000003      6.790142349095938e-7   
2.2                     6.603494029744471e-7   
2.205                   6.429900403924374e-7   
2.21                    6.261434936038841e-7   
2.215                   6.097928753410829e-7   
2.2199999999999998      5.93921914080906e-7    
2.225                   5.785149293263729e-7   
2.23                    5.635568079754652e-7   
2.2350000000000003      5.490329817250088e-7   
2.24                    5.349294054601764e-7   
2.245                   5.212325365826792e-7   
2.25                    5.079293152332484e-7   
2.255                   4.95007145366163e-7    
2.2600000000000002      4.824538766358439e-7   
2.265                   4.702577870575387e-7   
2.27                    4.5840756640602424e-7  
2.275                   4.468923003181315e-7   
2.2800000000000002      4.3570145506657166e-7  
2.285                   4.2482486297419956e-7  
2.29                    4.142527084393632e-7   
2.295                   4.0397551454450023e-7  
2.3                     3.9398413022144473e-7  
2.305                   3.8426971794827844e-7  
2.31                    3.748237419537722e-7   
2.315                   3.656379569066076e-7   
2.32                    3.567043970677415e-7   
